45.00750 11.0
45.02250 16.0
45.03750 17.0
45.05250 15.0
45.06750 23.0
45.08250 13.0
45.09750 14.0
45.11250 18.0
45.12750 28.0
45.14250 21.0
45.15750 48.0
45.17250 45.0
45.18750 61.0
45.20250 36.0
45.21750 28.0
45.23250 29.0
45.24750 22.0
45.26250 14.0
45.27750 24.0
45.29250 21.0
45.30750 25.0
45.32250 25.0
45.33750 30.0
45.35250 21.0
45.36750 44.0
45.38250 37.0
45.39750 41.0
45.41250 51.0
45.42750 63.0
45.44250 63.0
45.45750 60.0
45.47250 100.0
45.48750 111.0
45.50250 147.0
45.51750 338.0
45.53250 427.0
45.54750 499.0
45.56250 1017.0
45.57750 919.0
45.59250 981.0
45.60750 1082.0
45.62250 983.0
45.63750 983.0
45.65250 987.0
45.66750 1013.0
45.68250 1039.0
45.69750 994.0
45.71250 955.0
45.72750 1072.0
45.74250 909.0
45.75750 1043.0
45.77250 987.0
45.78750 965.0
45.80250 1057.0
45.81750 1017.0
45.83250 976.0
45.84750 1087.0
45.86250 1021.0
45.87750 951.0
45.89250 968.0
45.90750 992.0
45.92250 1018.0
45.93750 1018.0
45.95250 946.0
45.96750 1059.0
45.98250 1047.0
45.99750 994.0
46.01250 1008.0
46.02750 936.0
46.04250 890.0
46.05750 1026.0
46.07250 911.0
46.08750 991.0
46.10250 1054.0
46.11750 1060.0
46.13250 1020.0
46.14750 1039.0
46.16250 965.0
46.17750 1071.0
46.19250 1008.0
46.20750 954.0
46.22250 1022.0
46.23750 1014.0
46.25250 999.0
46.26750 1041.0
46.28250 1013.0
46.29750 1039.0
46.31250 1082.0
46.32750 1075.0
46.34250 1076.0
46.35750 1102.0
46.37250 1014.0
46.38750 1191.0
46.40250 1078.0
46.41750 1037.0
46.43250 1108.0
46.44750 1071.0
46.46250 1195.0
46.47750 1139.0
46.49250 1133.0
46.50750 1100.0
46.52250 1150.0
46.53750 1220.0
46.55250 1103.0
46.56750 1224.0
46.58250 1204.0
46.59750 1164.0
46.61250 1278.0
46.62750 1217.0
46.64250 1285.0
46.65750 1344.0
46.67250 1293.0
46.68750 1319.0
46.70250 1385.0
46.71750 1433.0
46.73250 1348.0
46.74750 1517.0
46.76250 1435.0
46.77750 1537.0
46.79250 1751.0
46.80750 1800.0
46.82250 1755.0
46.83750 1966.0
46.85250 2043.0
46.86750 2078.0
46.88250 2526.0
46.89750 2623.0
46.91250 2572.0
46.92750 3212.0
46.94250 3393.0
46.95750 3663.0
46.97250 5338.0
46.98750 5685.0
47.00250 7190.0
47.01750 11280.0
47.03250 12758.0
47.04750 13988.0
47.06250 15990.0
47.07750 16133.0
47.09250 16889.0
47.10750 18199.0
47.12250 18730.0
47.13750 24298.0
47.15250 29890.0
47.16750 30946.0
47.18250 59743.0
47.19750 63238.0
47.21250 72933.0
47.22750 96432.0
47.24250 115592.0
47.25750 118655.0
47.27250 877103.0
47.28750 330379.0
47.30250 208643.0
47.31750 139486.0
47.33250 84795.0
47.34750 85795.0
47.36250 157905.0
47.37750 379609.0
47.39250 406736.0
47.40750 325690.0
47.42250 111522.0
47.43750 80548.0
47.45250 31492.0
47.46750 22968.0
47.48250 17338.0
47.49750 12223.0
47.51250 9559.0
47.52750 8976.0
47.54250 6635.0
47.55750 6206.0
47.57250 5117.0
47.58750 4685.0
47.60250 4236.0
47.61750 3999.0
47.63250 3433.0
47.64750 3280.0
47.66250 2877.0
47.67750 2767.0
47.69250 2523.0
47.70750 2442.0
47.72250 2278.0
47.73750 2206.0
47.75250 2005.0
47.76750 1979.0
47.78250 1964.0
47.79750 1755.0
47.81250 1849.0
47.82750 1730.0
47.84250 1707.0
47.85750 1631.0
47.87250 1587.0
47.88750 1433.0
47.90250 1557.0
47.91750 1463.0
47.93250 1439.0
47.94750 1489.0
47.96250 1385.0
47.97750 1371.0
47.99250 1374.0
48.00750 1233.0
48.02250 1271.0
48.03750 1231.0
48.05250 1221.0
48.06750 1212.0
48.08250 1182.0
48.09750 1107.0
48.11250 1097.0
48.12750 1140.0
48.14250 1059.0
48.15750 1099.0
48.17250 990.0
48.18750 1093.0
48.20250 994.0
48.21750 1014.0
48.23250 1066.0
48.24750 905.0
48.26250 926.0
48.27750 977.0
48.29250 888.0
48.30750 984.0
48.32250 941.0
48.33750 873.0
48.35250 851.0
48.36750 841.0
48.38250 841.0
48.39750 920.0
48.41250 845.0
48.42750 838.0
48.44250 971.0
48.45750 763.0
48.47250 822.0
48.48750 816.0
48.50250 825.0
48.51750 770.0
48.53250 827.0
48.54750 791.0
48.56250 803.0
48.57750 793.0
48.59250 788.0
48.60750 748.0
48.62250 726.0
48.63750 765.0
48.65250 828.0
48.66750 711.0
48.68250 761.0
48.69750 772.0
48.71250 670.0
48.72750 772.0
48.74250 725.0
48.75750 738.0
48.77250 749.0
48.78750 682.0
48.80250 689.0
48.81750 710.0
48.83250 662.0
48.84750 691.0
48.86250 671.0
48.87750 693.0
48.89250 669.0
48.90750 692.0
48.92250 703.0
48.93750 652.0
48.95250 685.0
48.96750 639.0
48.98250 689.0
48.99750 614.0
49.01250 705.0
49.02750 660.0
49.04250 622.0
49.05750 678.0
49.07250 655.0
49.08750 617.0
49.10250 676.0
49.11750 601.0
49.13250 699.0
49.14750 651.0
49.16250 608.0
49.17750 626.0
49.19250 668.0
49.20750 644.0
49.22250 601.0
49.23750 631.0
49.25250 651.0
49.26750 612.0
49.28250 638.0
49.29750 579.0
49.31250 612.0
49.32750 544.0
49.34250 621.0
49.35750 602.0
49.37250 532.0
49.38750 547.0
49.40250 583.0
49.41750 577.0
49.43250 533.0
49.44750 561.0
49.46250 530.0
49.47750 624.0
49.49250 565.0
49.50750 605.0
49.52250 576.0
49.53750 540.0
49.55250 572.0
49.56750 526.0
49.58250 513.0
49.59750 505.0
49.61250 492.0
49.62750 552.0
49.64250 557.0
49.65750 556.0
49.67250 532.0
49.68750 555.0
49.70250 532.0
49.71750 503.0
49.73250 517.0
49.74750 481.0
49.76250 527.0
49.77750 537.0
49.79250 503.0
49.80750 517.0
49.82250 514.0
49.83750 463.0
49.85250 437.0
49.86750 462.0
49.88250 461.0
49.89750 518.0
49.91250 496.0
49.92750 457.0
49.94250 500.0
49.95750 458.0
49.97250 470.0
49.98750 471.0
