70.00750 10.0
70.02250 4.0
70.03750 14.0
70.05250 10.0
70.06750 6.0
70.08250 11.0
70.09750 12.0
70.11250 10.0
70.12750 11.0
70.14250 9.0
70.15750 9.0
70.17250 9.0
70.18750 5.0
70.20250 6.0
70.21750 6.0
70.23250 10.0
70.24750 6.0
70.26250 11.0
70.27750 5.0
70.29250 4.0
70.30750 8.0
70.32250 19.0
70.33750 6.0
70.35250 10.0
70.36750 13.0
70.38250 9.0
70.39750 10.0
70.41250 8.0
70.42750 5.0
70.44250 11.0
70.45750 6.0
70.47250 8.0
70.48750 5.0
70.50250 9.0
70.51750 3.0
70.53250 12.0
70.54750 9.0
70.56250 3.0
70.57750 10.0
70.59250 5.0
70.60750 12.0
70.62250 10.0
70.63750 8.0
70.65250 8.0
70.66750 3.0
70.68250 6.0
70.69750 8.0
70.71250 15.0
70.72750 3.0
70.74250 9.0
70.75750 5.0
70.77250 10.0
70.78750 8.0
70.80250 7.0
70.81750 9.0
70.83250 9.0
70.84750 5.0
70.86250 5.0
70.87750 7.0
70.89250 14.0
70.90750 10.0
70.92250 6.0
70.93750 10.0
70.95250 6.0
70.96750 7.0
70.98250 10.0
70.99750 6.0
71.01250 8.0
71.02750 8.0
71.04250 10.0
71.05750 8.0
71.07250 5.0
71.08750 7.0
71.10250 6.0
71.11750 7.0
71.13250 7.0
71.14750 7.0
71.16250 7.0
71.17750 6.0
71.19250 10.0
71.20750 8.0
71.22250 9.0
71.23750 8.0
71.25250 10.0
71.26750 13.0
71.28250 5.0
71.29750 8.0
71.31250 6.0
71.32750 7.0
71.34250 6.0
71.35750 11.0
71.37250 8.0
71.38750 9.0
71.40250 5.0
71.41750 4.0
71.43250 5.0
71.44750 14.0
71.46250 7.0
71.47750 6.0
71.49250 7.0
71.50750 13.0
71.52250 8.0
71.53750 11.0
71.55250 11.0
71.56750 6.0
71.58250 6.0
71.59750 3.0
71.61250 10.0
71.62750 8.0
71.64250 5.0
71.65750 4.0
71.67250 5.0
71.68750 6.0
71.70250 11.0
71.71750 7.0
71.73250 8.0
71.74750 10.0
71.76250 7.0
71.77750 6.0
71.79250 9.0
71.80750 7.0
71.82250 7.0
71.83750 5.0
71.85250 11.0
71.86750 6.0
71.88250 14.0
71.89750 2.0
71.91250 11.0
71.92750 12.0
71.94250 6.0
71.95750 6.0
71.97250 7.0
71.98750 12.0
72.00250 8.0
72.01750 5.0
72.03250 9.0
72.04750 9.0
72.06250 10.0
72.07750 6.0
72.09250 7.0
72.10750 7.0
72.12250 7.0
72.13750 11.0
72.15250 7.0
72.16750 12.0
72.18250 10.0
72.19750 5.0
72.21250 7.0
72.22750 11.0
72.24250 10.0
72.25750 7.0
72.27250 9.0
72.28750 9.0
72.30250 8.0
72.31750 10.0
72.33250 10.0
72.34750 9.0
72.36250 12.0
72.37750 6.0
72.39250 7.0
72.40750 5.0
72.42250 20.0
72.43750 6.0
72.45250 10.0
72.46750 7.0
72.48250 8.0
72.49750 14.0
72.51250 11.0
72.52750 5.0
72.54250 14.0
72.55750 12.0
72.57250 12.0
72.58750 14.0
72.60250 11.0
72.61750 13.0
72.63250 13.0
72.64750 11.0
72.66250 17.0
72.67750 12.0
72.69250 11.0
72.70750 5.0
72.72250 7.0
72.73750 10.0
72.75250 15.0
72.76750 14.0
72.78250 13.0
72.79750 11.0
72.81250 10.0
72.82750 8.0
72.84250 6.0
72.85750 12.0
72.87250 15.0
72.88750 17.0
72.90250 14.0
72.91750 7.0
72.93250 11.0
72.94750 13.0
72.96250 14.0
72.97750 15.0
72.99250 16.0
73.00750 13.0
73.02250 12.0
73.03750 10.0
73.05250 4.0
73.06750 10.0
73.08250 9.0
73.09750 11.0
73.11250 10.0
73.12750 9.0
73.14250 9.0
73.15750 9.0
73.17250 17.0
73.18750 15.0
73.20250 13.0
73.21750 13.0
73.23250 14.0
73.24750 24.0
73.26250 29.0
73.27750 29.0
73.29250 25.0
73.30750 32.0
73.32250 40.0
73.33750 79.0
73.35250 90.0
73.36750 71.0
73.38250 71.0
73.39750 58.0
73.41250 74.0
73.42750 60.0
73.44250 76.0
73.45750 84.0
73.47250 74.0
73.48750 69.0
73.50250 66.0
73.51750 64.0
73.53250 77.0
73.54750 101.0
73.56250 100.0
73.57750 85.0
73.59250 104.0
73.60750 97.0
73.62250 87.0
73.63750 87.0
73.65250 92.0
73.66750 78.0
73.68250 81.0
73.69750 63.0
73.71250 76.0
73.72750 58.0
73.74250 64.0
73.75750 70.0
73.77250 65.0
73.78750 61.0
73.80250 74.0
73.81750 50.0
73.83250 80.0
73.84750 59.0
73.86250 80.0
73.87750 71.0
73.89250 71.0
73.90750 68.0
73.92250 64.0
73.93750 74.0
73.95250 77.0
73.96750 75.0
73.98250 64.0
73.99750 65.0
74.01250 65.0
74.02750 75.0
74.04250 70.0
74.05750 63.0
74.07250 77.0
74.08750 73.0
74.10250 68.0
74.11750 82.0
74.13250 56.0
74.14750 68.0
74.16250 69.0
74.17750 68.0
74.19250 76.0
74.20750 74.0
74.22250 61.0
74.23750 71.0
74.25250 79.0
74.26750 73.0
74.28250 80.0
74.29750 94.0
74.31250 102.0
74.32750 107.0
74.34250 105.0
74.35750 112.0
74.37250 109.0
74.38750 86.0
74.40250 80.0
74.41750 99.0
74.43250 84.0
74.44750 80.0
74.46250 82.0
74.47750 64.0
74.49250 75.0
74.50750 103.0
74.52250 88.0
74.53750 81.0
74.55250 83.0
74.56750 83.0
74.58250 82.0
74.59750 75.0
74.61250 60.0
74.62750 87.0
74.64250 75.0
74.65750 80.0
74.67250 79.0
74.68750 80.0
74.70250 78.0
74.71750 80.0
74.73250 93.0
74.74750 77.0
74.76250 76.0
74.77750 77.0
74.79250 80.0
74.80750 80.0
74.82250 85.0
74.83750 94.0
74.85250 96.0
74.86750 67.0
74.88250 83.0
74.89750 86.0
74.91250 85.0
74.92750 81.0
74.94250 65.0
74.95750 82.0
74.97250 94.0
74.98750 87.0
75.00250 86.0
75.01750 80.0
75.03250 95.0
75.04750 87.0
75.06250 88.0
75.07750 79.0
75.09250 80.0
75.10750 96.0
75.12250 96.0
75.13750 101.0
75.15250 85.0
75.16750 101.0
75.18250 115.0
75.19750 109.0
75.21250 89.0
75.22750 98.0
75.24250 96.0
75.25750 110.0
75.27250 93.0
75.28750 98.0
75.30250 109.0
75.31750 102.0
75.33250 119.0
75.34750 107.0
75.36250 102.0
75.37750 127.0
75.39250 113.0
75.40750 106.0
75.42250 113.0
75.43750 129.0
75.45250 123.0
75.46750 118.0
75.48250 127.0
75.49750 129.0
75.51250 140.0
75.52750 133.0
75.54250 131.0
75.55750 143.0
75.57250 130.0
75.58750 173.0
75.60250 157.0
75.61750 121.0
75.63250 149.0
75.64750 145.0
75.66250 149.0
75.67750 141.0
75.69250 173.0
75.70750 145.0
75.72250 175.0
75.73750 164.0
75.75250 187.0
75.76750 164.0
75.78250 206.0
75.79750 209.0
75.81250 212.0
75.82750 232.0
75.84250 244.0
75.85750 278.0
75.87250 260.0
75.88750 319.0
75.90250 368.0
75.91750 413.0
75.93250 455.0
75.94750 545.0
75.96250 500.0
75.97750 563.0
75.99250 596.0
76.00750 589.0
76.02250 555.0
76.03750 561.0
76.05250 584.0
76.06750 619.0
76.08250 845.0
76.09750 820.0
76.11250 941.0
76.12750 1006.0
76.14250 1065.0
76.15750 1098.0
76.17250 1214.0
76.18750 1274.0
76.20250 1509.0
76.21750 1871.0
76.23250 1875.0
76.24750 2571.0
76.26250 2989.0
76.27750 3763.0
76.29250 6430.0
76.30750 10030.0
76.32250 15933.0
76.33750 53756.0
76.35250 63437.0
76.36750 56070.0
76.38250 28873.0
76.39750 19936.0
76.41250 9898.0
76.42750 5913.0
76.44250 4786.0
76.45750 3285.0
76.47250 3124.0
76.48750 3051.0
76.50250 3584.0
76.51750 4279.0
76.53250 7330.0
76.54750 12295.0
76.56250 17904.0
76.57750 33258.0
76.59250 31784.0
76.60750 16768.0
76.62250 10491.0
76.63750 6433.0
76.65250 3408.0
76.66750 2404.0
76.68250 2217.0
76.69750 1407.0
76.71250 1344.0
76.72750 1046.0
76.74250 1028.0
76.75750 934.0
76.77250 816.0
76.78750 766.0
76.80250 725.0
76.81750 668.0
76.83250 639.0
76.84750 512.0
76.86250 482.0
76.87750 411.0
76.89250 381.0
76.90750 348.0
76.92250 369.0
76.93750 291.0
76.95250 304.0
76.96750 252.0
76.98250 291.0
76.99750 248.0
77.01250 234.0
77.02750 239.0
77.04250 207.0
77.05750 197.0
77.07250 228.0
77.08750 243.0
77.10250 203.0
77.11750 210.0
77.13250 197.0
77.14750 183.0
77.16250 208.0
77.17750 147.0
77.19250 183.0
77.20750 170.0
77.22250 185.0
77.23750 158.0
77.25250 151.0
77.26750 153.0
77.28250 160.0
77.29750 145.0
77.31250 153.0
77.32750 128.0
77.34250 120.0
77.35750 124.0
77.37250 138.0
77.38750 138.0
77.40250 149.0
77.41750 130.0
77.43250 132.0
77.44750 129.0
77.46250 122.0
77.47750 120.0
77.49250 116.0
77.50750 130.0
77.52250 120.0
77.53750 117.0
77.55250 93.0
77.56750 109.0
77.58250 98.0
77.59750 101.0
77.61250 125.0
77.62750 110.0
77.64250 120.0
77.65750 98.0
77.67250 93.0
77.68750 104.0
77.70250 85.0
77.71750 91.0
77.73250 83.0
77.74750 108.0
77.76250 102.0
77.77750 99.0
77.79250 89.0
77.80750 95.0
77.82250 97.0
77.83750 89.0
77.85250 104.0
77.86750 98.0
77.88250 82.0
77.89750 91.0
77.91250 73.0
77.92750 77.0
77.94250 83.0
77.95750 79.0
77.97250 78.0
77.98750 79.0
78.00250 75.0
78.01750 83.0
78.03250 75.0
78.04750 64.0
78.06250 69.0
78.07750 82.0
78.09250 76.0
78.10750 66.0
78.12250 79.0
78.13750 84.0
78.15250 73.0
78.16750 61.0
78.18250 67.0
78.19750 63.0
78.21250 75.0
78.22750 78.0
78.24250 69.0
78.25750 68.0
78.27250 63.0
78.28750 63.0
78.30250 76.0
78.31750 62.0
78.33250 64.0
78.34750 63.0
78.36250 73.0
78.37750 79.0
78.39250 84.0
78.40750 58.0
78.42250 73.0
78.43750 67.0
78.45250 72.0
78.46750 62.0
78.48250 61.0
78.49750 60.0
78.51250 69.0
78.52750 63.0
78.54250 62.0
78.55750 45.0
78.57250 64.0
78.58750 73.0
78.60250 62.0
78.61750 62.0
78.63250 82.0
78.64750 53.0
78.66250 69.0
78.67750 55.0
78.69250 58.0
78.70750 63.0
78.72250 63.0
78.73750 55.0
78.75250 63.0
78.76750 57.0
78.78250 61.0
78.79750 58.0
78.81250 49.0
78.82750 73.0
78.84250 40.0
78.85750 55.0
78.87250 52.0
78.88750 72.0
78.90250 53.0
78.91750 41.0
78.93250 54.0
78.94750 58.0
78.96250 37.0
78.97750 48.0
78.99250 51.0
79.00750 63.0
79.02250 54.0
79.03750 49.0
79.05250 56.0
79.06750 52.0
79.08250 59.0
79.09750 53.0
79.11250 61.0
79.12750 53.0
79.14250 45.0
79.15750 59.0
79.17250 29.0
79.18750 50.0
79.20250 55.0
79.21750 49.0
79.23250 40.0
79.24750 43.0
79.26250 52.0
79.27750 47.0
79.29250 56.0
79.30750 47.0
79.32250 54.0
79.33750 53.0
79.35250 47.0
79.36750 47.0
79.38250 44.0
79.39750 53.0
79.41250 46.0
79.42750 35.0
79.44250 43.0
79.45750 52.0
79.47250 46.0
79.48750 63.0
79.50250 49.0
79.51750 46.0
79.53250 46.0
79.54750 34.0
79.56250 48.0
79.57750 43.0
79.59250 50.0
79.60750 42.0
79.62250 49.0
79.63750 45.0
79.65250 56.0
79.66750 38.0
79.68250 46.0
79.69750 41.0
79.71250 50.0
79.72750 44.0
79.74250 43.0
79.75750 45.0
79.77250 46.0
79.78750 48.0
79.80250 43.0
79.81750 47.0
79.83250 34.0
79.84750 54.0
79.86250 47.0
79.87750 57.0
79.89250 44.0
79.90750 36.0
79.92250 34.0
79.93750 45.0
79.95250 33.0
79.96750 40.0
79.98250 45.0
79.99750 43.0
